Time (Myr) 	 Time-t0 (yr) 	 5deg T_bol (K) 	 15 	 25 	 35 	 45 	 55 	 65 	 75 	 85 
2.232000e-01 	 3.000000e+03 	 1.555453e+01 	 1.555429e+01 	 1.555379e+01 	 1.555387e+01 	 1.555465e+01 	 1.555538e+01 	 1.555646e+01 	 1.555677e+01 	 1.555659e+01 
2.262000e-01 	 6.000000e+03 	 1.626020e+01 	 1.625986e+01 	 1.625896e+01 	 1.625842e+01 	 1.625812e+01 	 1.625824e+01 	 1.625861e+01 	 1.625805e+01 	 1.625745e+01 
2.292000e-01 	 9.000000e+03 	 1.693930e+01 	 1.693952e+01 	 1.693916e+01 	 1.693884e+01 	 1.693857e+01 	 1.693837e+01 	 1.693899e+01 	 1.693881e+01 	 1.693801e+01 
2.322000e-01 	 1.200000e+04 	 1.747150e+01 	 1.750416e+01 	 1.753246e+01 	 1.755675e+01 	 1.757397e+01 	 1.758446e+01 	 1.758520e+01 	 1.733130e+01 	 1.520869e+01 
2.352000e-01 	 1.500000e+04 	 5.318722e+01 	 5.328591e+01 	 5.344498e+01 	 5.372423e+01 	 5.402172e+01 	 5.440088e+01 	 5.475421e+01 	 5.359384e+01 	 5.353590e+01 
2.382000e-01 	 1.800000e+04 	 6.019736e+01 	 6.025691e+01 	 6.040623e+01 	 6.060558e+01 	 6.086734e+01 	 6.125127e+01 	 6.157240e+01 	 5.950046e+01 	 5.973083e+01 
2.412000e-01 	 2.100000e+04 	 6.362413e+01 	 6.378587e+01 	 6.393186e+01 	 6.414639e+01 	 6.448792e+01 	 6.489960e+01 	 6.524232e+01 	 6.193945e+01 	 6.223440e+01 
2.442000e-01 	 2.400000e+04 	 6.884240e+01 	 6.899302e+01 	 6.715496e+01 	 6.764690e+01 	 6.995633e+01 	 7.049880e+01 	 6.962234e+01 	 6.591523e+01 	 6.670199e+01 
2.472000e-01 	 2.700000e+04 	 6.434174e+01 	 6.452175e+01 	 6.465132e+01 	 6.484181e+01 	 6.505355e+01 	 6.525846e+01 	 6.543698e+01 	 5.664097e+01 	 5.692451e+01 
2.502000e-01 	 3.000000e+04 	 7.213116e+01 	 7.228809e+01 	 7.255514e+01 	 7.249388e+01 	 7.312638e+01 	 7.339624e+01 	 7.360398e+01 	 6.618234e+01 	 6.642058e+01 
2.532000e-01 	 3.300000e+04 	 7.703572e+01 	 7.722425e+01 	 7.750470e+01 	 7.800812e+01 	 7.821990e+01 	 7.868785e+01 	 7.869827e+01 	 6.943658e+01 	 6.987907e+01 
2.562000e-01 	 3.600000e+04 	 7.800392e+01 	 7.826379e+01 	 7.842285e+01 	 7.939921e+01 	 7.832164e+01 	 7.940722e+01 	 7.812965e+01 	 6.804139e+01 	 6.864345e+01 
2.592000e-01 	 3.900000e+04 	 7.676679e+01 	 7.680566e+01 	 7.686780e+01 	 7.705765e+01 	 7.708762e+01 	 7.716622e+01 	 7.658589e+01 	 6.204443e+01 	 6.241788e+01 
2.622000e-01 	 4.200000e+04 	 7.764728e+01 	 7.800153e+01 	 7.830154e+01 	 7.870552e+01 	 7.866173e+01 	 7.887139e+01 	 7.858327e+01 	 6.206164e+01 	 6.310850e+01 
2.652000e-01 	 4.500000e+04 	 8.424876e+01 	 8.445728e+01 	 8.450662e+01 	 8.461958e+01 	 8.452967e+01 	 8.444138e+01 	 8.355006e+01 	 6.865420e+01 	 6.980946e+01 
2.664800e-01 	 4.628000e+04 	 1.001197e+02 	 1.009853e+02 	 1.014244e+02 	 1.018114e+02 	 1.025875e+02 	 1.037746e+02 	 1.034694e+02 	 9.170987e+01 	 9.249555e+01 
2.682000e-01 	 4.800000e+04 	 8.692437e+01 	 8.720200e+01 	 8.873942e+01 	 8.975382e+01 	 8.864291e+01 	 8.815767e+01 	 8.378843e+01 	 5.739192e+01 	 5.836017e+01 
2.686000e-01 	 4.839999e+04 	 1.114025e+02 	 1.109471e+02 	 1.124179e+02 	 1.117184e+02 	 1.122623e+02 	 1.133401e+02 	 1.129029e+02 	 9.795186e+01 	 9.902402e+01 
2.712000e-01 	 5.100000e+04 	 9.136850e+01 	 9.178279e+01 	 9.212947e+01 	 9.184384e+01 	 9.151994e+01 	 9.082038e+01 	 8.615328e+01 	 5.657837e+01 	 5.640203e+01 
2.720400e-01 	 5.184001e+04 	 1.037621e+02 	 1.039128e+02 	 1.046416e+02 	 1.042049e+02 	 1.047383e+02 	 1.047978e+02 	 1.039686e+02 	 8.652758e+01 	 8.809387e+01 
2.735600e-01 	 5.335999e+04 	 1.113958e+02 	 1.122133e+02 	 1.121905e+02 	 1.124436e+02 	 1.131811e+02 	 1.135047e+02 	 1.101560e+02 	 8.865848e+01 	 8.773998e+01 
2.742000e-01 	 5.400000e+04 	 1.115785e+02 	 1.117904e+02 	 1.111289e+02 	 1.106708e+02 	 1.089994e+02 	 1.073983e+02 	 9.523974e+01 	 5.146921e+01 	 5.043603e+01 
2.755600e-01 	 5.535999e+04 	 1.141836e+02 	 1.148835e+02 	 1.157656e+02 	 1.147642e+02 	 1.152452e+02 	 1.153177e+02 	 1.091707e+02 	 8.210802e+01 	 8.152785e+01 
2.772000e-01 	 5.700000e+04 	 1.138223e+02 	 1.124528e+02 	 1.134249e+02 	 1.123012e+02 	 1.115840e+02 	 1.092180e+02 	 9.883508e+01 	 5.381538e+01 	 5.278380e+01 
2.802000e-01 	 6.000000e+04 	 9.986819e+01 	 1.000625e+02 	 1.000553e+02 	 9.953690e+01 	 9.975992e+01 	 9.910182e+01 	 9.289922e+01 	 6.574535e+01 	 6.573461e+01 
2.832000e-01 	 6.300000e+04 	 1.010201e+02 	 1.013934e+02 	 1.020241e+02 	 1.013088e+02 	 1.017579e+02 	 1.014793e+02 	 9.598302e+01 	 6.338969e+01 	 6.356686e+01 
2.862000e-01 	 6.600000e+04 	 1.237233e+02 	 1.247903e+02 	 1.244081e+02 	 1.249280e+02 	 1.232215e+02 	 1.224971e+02 	 1.084441e+02 	 6.123579e+01 	 5.946559e+01 
2.892000e-01 	 6.900000e+04 	 1.252496e+02 	 1.253459e+02 	 1.259251e+02 	 1.248957e+02 	 1.247503e+02 	 1.232908e+02 	 1.129224e+02 	 6.156006e+01 	 6.188477e+01 
2.922000e-01 	 7.200000e+04 	 1.264831e+02 	 1.254881e+02 	 1.253205e+02 	 1.259369e+02 	 1.240052e+02 	 1.237359e+02 	 1.015803e+02 	 6.421507e+01 	 6.092958e+01 
2.931800e-01 	 7.297999e+04 	 1.293354e+02 	 1.302823e+02 	 1.366029e+02 	 1.365040e+02 	 1.329081e+02 	 1.321144e+02 	 1.178028e+02 	 8.698505e+01 	 8.673718e+01 
2.932000e-01 	 7.299998e+04 	 1.220987e+02 	 1.242872e+02 	 1.259872e+02 	 1.229331e+02 	 1.228115e+02 	 1.240798e+02 	 1.087990e+02 	 7.833549e+01 	 7.831194e+01 
2.952000e-01 	 7.500000e+04 	 1.880554e+02 	 1.887162e+02 	 1.892524e+02 	 1.896163e+02 	 1.887207e+02 	 1.877777e+02 	 1.274602e+02 	 5.058965e+01 	 4.739284e+01 
2.982000e-01 	 7.800000e+04 	 1.433871e+02 	 1.440658e+02 	 1.439815e+02 	 1.433360e+02 	 1.418946e+02 	 1.404919e+02 	 1.191477e+02 	 6.085172e+01 	 5.991073e+01 
3.012000e-01 	 8.100000e+04 	 1.246935e+02 	 1.254618e+02 	 1.293054e+02 	 1.290551e+02 	 1.255772e+02 	 1.284907e+02 	 1.089001e+02 	 7.028636e+01 	 7.004427e+01 
3.042000e-01 	 8.400000e+04 	 1.855893e+02 	 1.843951e+02 	 1.829069e+02 	 1.796625e+02 	 1.759792e+02 	 1.716919e+02 	 1.295458e+02 	 6.137067e+01 	 5.948321e+01 
3.054600e-01 	 8.526001e+04 	 1.329156e+02 	 1.356420e+02 	 1.342219e+02 	 1.365812e+02 	 1.369573e+02 	 1.349167e+02 	 1.192517e+02 	 8.402174e+01 	 8.375000e+01 
3.054800e-01 	 8.528000e+04 	 1.415722e+02 	 1.421222e+02 	 1.426585e+02 	 1.407329e+02 	 1.399163e+02 	 1.395089e+02 	 1.223590e+02 	 8.778675e+01 	 8.744383e+01 
3.055000e-01 	 8.530000e+04 	 1.580333e+02 	 1.517795e+02 	 1.592721e+02 	 1.590374e+02 	 1.584954e+02 	 1.566021e+02 	 1.344259e+02 	 9.611559e+01 	 9.670421e+01 
3.072000e-01 	 8.700000e+04 	 2.263796e+02 	 2.241746e+02 	 2.242923e+02 	 2.238685e+02 	 2.225557e+02 	 2.213974e+02 	 1.494200e+02 	 5.406153e+01 	 5.009784e+01 
3.102000e-01 	 9.000000e+04 	 1.367029e+02 	 1.426050e+02 	 1.380731e+02 	 1.417157e+02 	 1.376311e+02 	 1.395985e+02 	 1.143437e+02 	 7.876563e+01 	 7.841119e+01 
3.106800e-01 	 9.048000e+04 	 1.364781e+02 	 1.377426e+02 	 1.378100e+02 	 1.395589e+02 	 1.457408e+02 	 1.396818e+02 	 1.201192e+02 	 8.612900e+01 	 8.566193e+01 
3.107000e-01 	 9.050000e+04 	 1.403648e+02 	 1.423465e+02 	 1.424326e+02 	 1.441108e+02 	 1.430179e+02 	 1.431297e+02 	 1.233386e+02 	 8.820785e+01 	 8.849189e+01 
3.132000e-01 	 9.300000e+04 	 1.891529e+02 	 1.899828e+02 	 1.901507e+02 	 1.902970e+02 	 1.898439e+02 	 1.878941e+02 	 1.308223e+02 	 6.165561e+01 	 5.908523e+01 
3.162000e-01 	 9.600000e+04 	 2.166806e+02 	 2.173913e+02 	 2.172795e+02 	 2.169581e+02 	 2.152718e+02 	 2.126613e+02 	 1.455165e+02 	 6.214041e+01 	 5.891583e+01 
3.192000e-01 	 9.900000e+04 	 1.979379e+02 	 1.992698e+02 	 2.003527e+02 	 2.008626e+02 	 1.995459e+02 	 1.978405e+02 	 1.757060e+02 	 6.341884e+01 	 6.058449e+01 
3.196800e-01 	 9.948001e+04 	 2.073202e+02 	 1.964479e+02 	 2.068727e+02 	 2.047192e+02 	 2.039256e+02 	 1.996317e+02 	 1.473053e+02 	 8.576389e+01 	 8.264604e+01 
3.198400e-01 	 9.964002e+04 	 1.692508e+02 	 1.700161e+02 	 1.710412e+02 	 1.708917e+02 	 1.700786e+02 	 1.684851e+02 	 1.354568e+02 	 9.604262e+01 	 9.571240e+01 
3.203800e-01 	 1.001800e+05 	 1.709333e+02 	 1.798682e+02 	 1.823479e+02 	 1.759055e+02 	 1.764043e+02 	 1.777035e+02 	 1.537162e+02 	 1.144330e+02 	 1.157067e+02 
3.204400e-01 	 1.002400e+05 	 1.712352e+02 	 1.739491e+02 	 1.764461e+02 	 1.785408e+02 	 1.795750e+02 	 1.793787e+02 	 1.457958e+02 	 1.014649e+02 	 9.879994e+01 
3.206200e-01 	 1.004200e+05 	 1.878762e+02 	 1.884235e+02 	 1.905382e+02 	 1.897365e+02 	 1.883385e+02 	 1.912653e+02 	 1.357180e+02 	 8.891386e+01 	 8.448278e+01 
3.222000e-01 	 1.020000e+05 	 2.991634e+02 	 2.998595e+02 	 3.006634e+02 	 3.014887e+02 	 3.003706e+02 	 2.981793e+02 	 1.652814e+02 	 5.725570e+01 	 5.134380e+01 
3.252000e-01 	 1.050000e+05 	 2.850059e+02 	 2.857662e+02 	 2.880259e+02 	 2.856183e+02 	 2.839432e+02 	 2.814459e+02 	 1.767625e+02 	 6.468445e+01 	 5.949713e+01 
3.282000e-01 	 1.080000e+05 	 2.910199e+02 	 2.912827e+02 	 2.910285e+02 	 2.910443e+02 	 2.890237e+02 	 2.862922e+02 	 1.690368e+02 	 6.621880e+01 	 6.064994e+01 
3.295200e-01 	 1.093200e+05 	 1.850901e+02 	 1.857851e+02 	 1.860131e+02 	 1.856978e+02 	 1.847475e+02 	 1.823067e+02 	 1.362716e+02 	 8.635431e+01 	 8.568890e+01 
3.295400e-01 	 1.093400e+05 	 1.840624e+02 	 1.823285e+02 	 1.874683e+02 	 1.877150e+02 	 1.854200e+02 	 1.837362e+02 	 1.450065e+02 	 9.648555e+01 	 9.076945e+01 
3.295800e-01 	 1.093800e+05 	 1.789016e+02 	 1.805484e+02 	 1.830023e+02 	 1.832136e+02 	 1.832294e+02 	 1.830657e+02 	 1.461264e+02 	 1.012007e+02 	 9.482449e+01 
3.296400e-01 	 1.094400e+05 	 1.696147e+02 	 1.723966e+02 	 1.715050e+02 	 1.730667e+02 	 1.727670e+02 	 1.717299e+02 	 1.305127e+02 	 8.718338e+01 	 8.650432e+01 
3.296600e-01 	 1.094600e+05 	 1.917645e+02 	 1.931088e+02 	 1.934681e+02 	 1.941478e+02 	 1.929366e+02 	 1.911646e+02 	 1.456829e+02 	 9.742489e+01 	 9.045017e+01 
3.303200e-01 	 1.101200e+05 	 1.712378e+02 	 1.733631e+02 	 1.745726e+02 	 1.742451e+02 	 1.756461e+02 	 1.744433e+02 	 1.371304e+02 	 9.595261e+01 	 9.576840e+01 
3.303400e-01 	 1.101400e+05 	 1.790526e+02 	 1.708773e+02 	 1.722585e+02 	 1.755819e+02 	 1.809552e+02 	 1.805741e+02 	 1.408733e+02 	 9.608301e+01 	 9.562923e+01 
3.303600e-01 	 1.101600e+05 	 1.707758e+02 	 1.711331e+02 	 1.725892e+02 	 1.725964e+02 	 1.729481e+02 	 1.719041e+02 	 1.353437e+02 	 9.572753e+01 	 9.522172e+01 
3.303800e-01 	 1.101800e+05 	 1.986778e+02 	 1.999686e+02 	 2.006871e+02 	 2.015554e+02 	 2.076287e+02 	 2.063513e+02 	 1.540186e+02 	 9.972899e+01 	 9.847055e+01 
3.304000e-01 	 1.102000e+05 	 1.712222e+02 	 1.749023e+02 	 1.759108e+02 	 1.803193e+02 	 1.769243e+02 	 1.765425e+02 	 1.389918e+02 	 9.632863e+01 	 9.517167e+01 
3.305600e-01 	 1.103600e+05 	 1.819868e+02 	 1.823195e+02 	 1.830760e+02 	 1.834810e+02 	 1.827667e+02 	 1.821690e+02 	 1.316455e+02 	 8.594021e+01 	 8.450558e+01 
3.312000e-01 	 1.110000e+05 	 3.536870e+02 	 3.554969e+02 	 3.559984e+02 	 3.557420e+02 	 3.555265e+02 	 3.533266e+02 	 1.749175e+02 	 6.068199e+01 	 5.333230e+01 
3.342000e-01 	 1.140000e+05 	 3.460371e+02 	 3.471860e+02 	 3.482645e+02 	 3.489338e+02 	 3.497183e+02 	 3.476015e+02 	 1.355627e+02 	 5.856220e+01 	 5.302808e+01 
3.372000e-01 	 1.170000e+05 	 2.900597e+02 	 2.914605e+02 	 2.922722e+02 	 2.930634e+02 	 2.918830e+02 	 2.898590e+02 	 1.800640e+02 	 6.836223e+01 	 6.091428e+01 
3.402000e-01 	 1.200000e+05 	 3.607201e+02 	 3.608285e+02 	 3.624911e+02 	 3.608148e+02 	 3.577317e+02 	 3.520462e+02 	 1.700723e+02 	 7.799720e+01 	 7.089032e+01 
3.403800e-01 	 1.201800e+05 	 1.980636e+02 	 2.238954e+02 	 2.015514e+02 	 2.019581e+02 	 2.243292e+02 	 2.005844e+02 	 1.374086e+02 	 9.607526e+01 	 9.293183e+01 
3.404200e-01 	 1.202200e+05 	 2.054011e+02 	 2.629088e+02 	 2.080077e+02 	 2.547613e+02 	 2.526018e+02 	 2.088777e+02 	 1.608694e+02 	 8.656822e+01 	 8.508255e+01 
3.404400e-01 	 1.202400e+05 	 1.936590e+02 	 1.970151e+02 	 2.001301e+02 	 2.030863e+02 	 2.033181e+02 	 1.999666e+02 	 1.334522e+02 	 9.064081e+01 	 8.899858e+01 
3.405800e-01 	 1.203800e+05 	 2.078347e+02 	 2.093533e+02 	 2.112336e+02 	 2.131732e+02 	 2.136701e+02 	 2.136656e+02 	 1.369349e+02 	 8.835058e+01 	 8.594082e+01 
3.408600e-01 	 1.206600e+05 	 2.041214e+02 	 2.053320e+02 	 2.068391e+02 	 2.199974e+02 	 2.080521e+02 	 2.071526e+02 	 1.331040e+02 	 8.738220e+01 	 8.608516e+01 
3.408800e-01 	 1.206800e+05 	 2.063585e+02 	 2.608028e+02 	 2.615668e+02 	 2.121469e+02 	 2.610498e+02 	 2.132392e+02 	 1.757017e+02 	 9.618820e+01 	 9.729673e+01 
3.413200e-01 	 1.211200e+05 	 2.237002e+02 	 2.255181e+02 	 2.260165e+02 	 2.260244e+02 	 2.241330e+02 	 2.234739e+02 	 1.302109e+02 	 8.396088e+01 	 8.209349e+01 
3.415600e-01 	 1.213600e+05 	 2.487258e+02 	 2.457505e+02 	 2.501797e+02 	 2.514877e+02 	 2.472314e+02 	 2.473475e+02 	 1.374211e+02 	 8.113367e+01 	 7.786112e+01 
3.432000e-01 	 1.230000e+05 	 4.661882e+02 	 4.671418e+02 	 4.357856e+02 	 4.367319e+02 	 4.370293e+02 	 4.623569e+02 	 2.193339e+02 	 6.628383e+01 	 5.690153e+01 
3.449800e-01 	 1.247800e+05 	 1.861005e+02 	 1.867630e+02 	 1.840477e+02 	 1.866896e+02 	 1.854421e+02 	 1.833911e+02 	 1.587339e+02 	 1.058766e+02 	 1.064221e+02 
3.450000e-01 	 1.248000e+05 	 1.748379e+02 	 1.760733e+02 	 1.751945e+02 	 1.752372e+02 	 1.756569e+02 	 1.751319e+02 	 1.569471e+02 	 1.108669e+02 	 1.127552e+02 
3.450200e-01 	 1.248200e+05 	 1.805754e+02 	 1.788330e+02 	 1.796134e+02 	 1.834835e+02 	 1.836613e+02 	 1.790773e+02 	 1.631524e+02 	 1.170236e+02 	 1.154324e+02 
3.450400e-01 	 1.248400e+05 	 1.758207e+02 	 1.686913e+02 	 1.702833e+02 	 1.787495e+02 	 1.715067e+02 	 1.788976e+02 	 1.575782e+02 	 1.099249e+02 	 1.110376e+02 
3.450600e-01 	 1.248600e+05 	 1.777824e+02 	 1.787360e+02 	 1.728932e+02 	 1.738935e+02 	 1.739436e+02 	 1.823533e+02 	 1.624380e+02 	 1.098105e+02 	 1.109575e+02 
3.462000e-01 	 1.260000e+05 	 3.536199e+02 	 3.743695e+02 	 3.535796e+02 	 3.713535e+02 	 3.490480e+02 	 3.623775e+02 	 2.184633e+02 	 8.770706e+01 	 7.853949e+01 
3.492000e-01 	 1.290000e+05 	 5.265525e+02 	 5.298307e+02 	 4.003693e+02 	 5.244442e+02 	 5.157829e+02 	 5.043849e+02 	 3.035009e+02 	 8.626208e+01 	 8.318886e+01 
3.522000e-01 	 1.320000e+05 	 5.255125e+02 	 5.288759e+02 	 5.321221e+02 	 5.354552e+02 	 5.387937e+02 	 5.394505e+02 	 2.148665e+02 	 7.045378e+01 	 5.774876e+01 
3.552000e-01 	 1.350000e+05 	 2.718561e+02 	 2.744658e+02 	 2.754036e+02 	 2.770680e+02 	 2.766928e+02 	 2.744883e+02 	 1.524723e+02 	 8.665067e+01 	 8.308558e+01 
3.582000e-01 	 1.380000e+05 	 4.631762e+02 	 4.648402e+02 	 4.663368e+02 	 4.677978e+02 	 4.676960e+02 	 4.662154e+02 	 1.929943e+02 	 7.787987e+01 	 6.815590e+01 
3.612000e-01 	 1.410000e+05 	 8.158440e+02 	 8.181223e+02 	 8.195241e+02 	 8.248415e+02 	 8.323857e+02 	 8.375375e+02 	 2.259690e+02 	 6.027166e+01 	 4.523836e+01 
3.618800e-01 	 1.416800e+05 	 3.220084e+02 	 3.285451e+02 	 3.374251e+02 	 3.418208e+02 	 3.488740e+02 	 3.530048e+02 	 1.958180e+02 	 1.244021e+02 	 1.166949e+02 
3.619000e-01 	 1.417000e+05 	 4.402623e+02 	 4.436011e+02 	 4.463622e+02 	 4.517493e+02 	 4.562448e+02 	 4.583743e+02 	 1.400232e+02 	 7.184774e+01 	 6.664719e+01 
3.642000e-01 	 1.440000e+05 	 1.032470e+03 	 1.035873e+03 	 1.040638e+03 	 1.049037e+03 	 1.061762e+03 	 1.070609e+03 	 1.971973e+02 	 4.821039e+01 	 4.058402e+01 
3.647000e-01 	 1.445000e+05 	 4.419782e+02 	 4.483554e+02 	 4.500985e+02 	 4.610085e+02 	 4.709055e+02 	 4.857419e+02 	 1.865317e+02 	 8.460152e+01 	 7.594066e+01 
3.647200e-01 	 1.445200e+05 	 6.990227e+02 	 6.942767e+02 	 7.017999e+02 	 7.186255e+02 	 7.246352e+02 	 7.457001e+02 	 1.564082e+02 	 6.224484e+01 	 5.580795e+01 
3.672000e-01 	 1.470000e+05 	 1.321302e+03 	 1.325532e+03 	 1.334549e+03 	 1.347445e+03 	 1.366081e+03 	 1.379717e+03 	 2.391924e+02 	 4.227135e+01 	 3.599191e+01 
3.702000e-01 	 1.500000e+05 	 1.571332e+03 	 1.579191e+03 	 1.587984e+03 	 1.605955e+03 	 1.630343e+03 	 1.640536e+03 	 3.112255e+02 	 4.043066e+01 	 3.364342e+01 
3.732000e-01 	 1.530000e+05 	 1.936072e+03 	 1.941911e+03 	 1.958616e+03 	 1.979786e+03 	 2.009190e+03 	 2.015671e+03 	 2.847385e+02 	 3.784777e+01 	 3.159526e+01 
3.762000e-01 	 1.560000e+05 	 1.281829e+03 	 1.284410e+03 	 1.293475e+03 	 1.305587e+03 	 1.325051e+03 	 1.338336e+03 	 3.019237e+02 	 4.321508e+01 	 3.630131e+01 
3.792000e-01 	 1.590000e+05 	 4.712621e+02 	 4.731472e+02 	 4.739969e+02 	 4.732482e+02 	 4.738714e+02 	 4.710031e+02 	 3.069225e+02 	 7.557380e+01 	 6.408343e+01 
3.822000e-01 	 1.620000e+05 	 5.032694e+02 	 5.040532e+02 	 5.045385e+02 	 5.033738e+02 	 5.059040e+02 	 5.040778e+02 	 3.081150e+02 	 7.733772e+01 	 6.586642e+01 
3.852000e-01 	 1.650000e+05 	 5.985454e+02 	 6.007995e+02 	 6.008767e+02 	 6.039224e+02 	 6.065058e+02 	 6.071078e+02 	 3.154717e+02 	 7.265797e+01 	 5.920081e+01 
3.882000e-01 	 1.680000e+05 	 6.358231e+02 	 6.343047e+02 	 6.369134e+02 	 6.429605e+02 	 6.466683e+02 	 6.462585e+02 	 2.867226e+02 	 6.879209e+01 	 5.533238e+01 
3.912000e-01 	 1.710000e+05 	 6.173919e+02 	 6.202092e+02 	 6.205262e+02 	 6.233505e+02 	 6.261601e+02 	 6.269422e+02 	 2.877872e+02 	 7.264883e+01 	 5.901285e+01 
3.942000e-01 	 1.740000e+05 	 5.621803e+02 	 5.640965e+02 	 5.668327e+02 	 5.702863e+02 	 5.716904e+02 	 5.720630e+02 	 2.658317e+02 	 7.365578e+01 	 6.059227e+01 
3.972000e-01 	 1.770000e+05 	 6.617399e+02 	 6.627257e+02 	 6.660310e+02 	 6.684478e+02 	 6.701514e+02 	 6.686170e+02 	 2.384885e+02 	 6.656524e+01 	 5.563184e+01 
4.002000e-01 	 1.800000e+05 	 7.230630e+02 	 7.238587e+02 	 7.277105e+02 	 7.318700e+02 	 7.381217e+02 	 7.436806e+02 	 2.889318e+02 	 6.528446e+01 	 5.219174e+01 
4.032000e-01 	 1.830000e+05 	 8.458039e+02 	 8.486337e+02 	 8.502118e+02 	 8.562194e+02 	 8.629554e+02 	 8.684076e+02 	 3.255211e+02 	 6.611157e+01 	 4.961188e+01 
4.062000e-01 	 1.860000e+05 	 8.444117e+02 	 8.457628e+02 	 8.495416e+02 	 8.547698e+02 	 8.609518e+02 	 8.670836e+02 	 3.266720e+02 	 6.834255e+01 	 4.992474e+01 
4.092000e-01 	 1.890000e+05 	 7.977203e+02 	 7.991675e+02 	 8.028964e+02 	 8.083376e+02 	 8.132448e+02 	 8.179833e+02 	 2.827864e+02 	 7.267545e+01 	 5.621722e+01 
4.122000e-01 	 1.920000e+05 	 9.526854e+02 	 9.572979e+02 	 9.616787e+02 	 9.688110e+02 	 9.769852e+02 	 9.863360e+02 	 2.846204e+02 	 7.342836e+01 	 5.057400e+01 
4.152000e-01 	 1.950000e+05 	 1.072761e+03 	 1.074468e+03 	 1.079067e+03 	 1.088426e+03 	 1.099455e+03 	 1.109913e+03 	 3.301459e+02 	 7.548296e+01 	 4.553797e+01 
4.182000e-01 	 1.980000e+05 	 1.086516e+03 	 1.087187e+03 	 1.091373e+03 	 1.102038e+03 	 1.113360e+03 	 1.123579e+03 	 3.056835e+02 	 6.534862e+01 	 4.559503e+01 
4.212000e-01 	 2.010000e+05 	 1.107173e+03 	 1.110327e+03 	 1.115851e+03 	 1.123798e+03 	 1.136078e+03 	 1.147621e+03 	 2.910988e+02 	 6.408364e+01 	 4.555373e+01 
4.242000e-01 	 2.040000e+05 	 1.121438e+03 	 1.125286e+03 	 1.129771e+03 	 1.140300e+03 	 1.151740e+03 	 1.162544e+03 	 2.647021e+02 	 6.284959e+01 	 4.641440e+01 
4.272000e-01 	 2.070000e+05 	 1.131949e+03 	 1.135240e+03 	 1.144038e+03 	 1.150254e+03 	 1.162542e+03 	 1.173328e+03 	 3.100734e+02 	 6.446942e+01 	 4.367229e+01 
4.302000e-01 	 2.100000e+05 	 1.063210e+03 	 1.065655e+03 	 1.072319e+03 	 1.080449e+03 	 1.090859e+03 	 1.110538e+03 	 2.748126e+02 	 6.963528e+01 	 5.035128e+01 
4.332000e-01 	 2.130000e+05 	 8.160029e+02 	 8.175103e+02 	 8.195181e+02 	 8.239009e+02 	 8.258113e+02 	 8.272319e+02 	 2.650950e+02 	 8.329668e+01 	 6.626594e+01 
4.362000e-01 	 2.160000e+05 	 1.204554e+03 	 1.208236e+03 	 1.214576e+03 	 1.224600e+03 	 1.237227e+03 	 1.252029e+03 	 3.017700e+02 	 6.376972e+01 	 4.429686e+01 
4.392000e-01 	 2.190000e+05 	 1.228208e+03 	 1.230288e+03 	 1.236022e+03 	 1.245466e+03 	 1.255477e+03 	 1.266617e+03 	 2.875190e+02 	 6.480136e+01 	 4.599576e+01 
4.422000e-01 	 2.220000e+05 	 1.097021e+03 	 1.100522e+03 	 1.102566e+03 	 1.113692e+03 	 1.119472e+03 	 1.128573e+03 	 2.663821e+02 	 7.278506e+01 	 5.317287e+01 
4.452000e-01 	 2.250000e+05 	 9.623177e+02 	 9.628618e+02 	 9.654345e+02 	 9.723383e+02 	 9.784403e+02 	 9.844551e+02 	 2.494563e+02 	 8.405560e+01 	 6.156883e+01 
4.482000e-01 	 2.280000e+05 	 1.007138e+03 	 1.009475e+03 	 1.010651e+03 	 1.017745e+03 	 1.023153e+03 	 1.030003e+03 	 2.939207e+02 	 8.793381e+01 	 6.232693e+01 
